Lag_time_ns,Correlation,Confidence_interval_low_bound,Confidence_interval_high_bound
0.0,1.0,0.0,0.0
0.01,0.9495686519392392,-0.011260256345400177,0.011260256345400177
0.02,0.9355007295375614,-0.01885331876513896,0.01885331876513896
0.03,0.9247698823187901,-0.02402867067817749,0.02402867067817749
0.04,0.9156365163360376,-0.028182338992795097,0.028182338992795097
0.05,0.9075793081820761,-0.0317308821396558,0.0317308821396558
0.06,0.9005604241720031,-0.03486729606467265,0.03486729606467265
0.07,0.8935692867844758,-0.03770131944328414,0.03770131944328414
0.08,0.8875575003938776,-0.04029726914149545,0.04029726914149545
0.09,0.8818228664787419,-0.04270403925066868,0.04270403925066868
0.1,0.8770783864386694,-0.04495360892529743,0.04495360892529743
0.11,0.8721634104393297,-0.047073376157549585,0.047073376157549585
0.12,0.8670767499732964,-0.04907951021544521,0.04907951021544521
0.13,0.8627892650110022,-0.050984805975852865,0.050984805975852865
0.14,0.8575930786706217,-0.05280361504750786,0.05280361504750786
0.15,0.8535029371136588,-0.054541050260446866,0.054541050260446866
0.16,0.8500334296079085,-0.056209036697134396,0.056209036697134396
0.17,0.8454022568996722,-0.0578159722054008,0.0578159722054008
0.18,0.8414038573099084,-0.05936266799269485,0.05936266799269485
0.19,0.8373328226828102,-0.060856024666833486,0.060856024666833486
0.2,0.8332924487557919,-0.06229969553681158,0.06229969553681158
0.21,0.8296701019051173,-0.06369722671869604,0.06369722671869604
0.22,0.8273055105377526,-0.06505300728328722,0.06505300728328722
0.23,0.8235829383711918,-0.06637361863621849,0.06637361863621849
0.24,0.8208855006750142,-0.06765694579829917,0.06765694579829917
0.25,0.8181070786969301,-0.0689082179829178,0.0689082179829178
0.26,0.8144230753946881,-0.07012893774888707,0.07012893774888707
0.27,0.8113973584534033,-0.07131807751755159,0.07131807751755159
0.28,0.8085409816623729,-0.07247910726218842,0.07247910726218842
0.29,0.8053613236112334,-0.07361386019800875,0.07361386019800875
0.3,0.8027768164637645,-0.07472267739223448,0.07472267739223448
0.31,0.799760569392333,-0.07580832837857288,0.07580832837857288
0.32,0.7969319614364606,-0.07687067735618769,0.07687067735618769
0.33,0.7944757238103439,-0.07791119379976641,0.07791119379976641
0.34,0.7916989140222802,-0.07893171708767388,0.07893171708767388
0.35000000000000003,0.7874295177279638,-0.07993222680093526,0.07993222680093526
0.36,0.7849518237129665,-0.08090980248068036,0.08090980248068036
0.37,0.7815507313610895,-0.08186967356767927,0.08186967356767927
0.38,0.778295911000905,-0.08281026324190155,0.08281026324190155
0.39,0.7744641194901952,-0.08373260106536828,0.08373260106536828
0.4,0.7718502921946763,-0.08463597615887386,0.08463597615887386
0.41000000000000003,0.7693487500516208,-0.08552381827858957,0.08552381827858957
0.42,0.7670486580632447,-0.08639687988403244,0.08639687988403244
0.43,0.7644221337613994,-0.08725607185496576,0.08725607185496576
0.44,0.7618141318295681,-0.08810109680713274,0.08810109680713274
0.45,0.7594040691518763,-0.08893241848795919,0.08893241848795919
0.46,0.7574374586444558,-0.08975086155560119,0.08975086155560119
0.47000000000000003,0.7545941734022407,-0.090557731769917,0.090557731769917
0.48,0.7523550139068987,-0.09135150908678269,0.09135150908678269
0.49,0.7498597439006962,-0.09213380467506005,0.09213380467506005
0.5,0.7476623881281419,-0.09290439797363492,0.09290439797363492
0.51,0.7451770664658313,-0.09366419760000755,0.09366419760000755
0.52,0.7420278695372592,-0.0944129006397374,0.0944129006397374
0.53,0.7400233851342267,-0.09514947203495927,0.09514947203495927
0.54,0.7368901667658688,-0.09587645648112686,0.09587645648112686
0.55,0.7349817691041406,-0.09659189570256677,0.09659189570256677
0.56,0.7329129014124814,-0.09729841426941133,0.09729841426941133
0.5700000000000001,0.7312936063249387,-0.09799591017377873,0.09799591017377873
0.58,0.7288171901241193,-0.0986854302950535,0.0986854302950535
0.59,0.7266375758230631,-0.09936555220315502,0.09936555220315502
0.6,0.7243103432378591,-0.10003702972354078,0.10003702972354078
0.61,0.7215117115456735,-0.10069977846310885,0.10069977846310885
0.62,0.7187880937228925,-0.10135313194539097,0.10135313194539097
0.63,0.7171043991832688,-0.1019974242372057,0.1019974242372057
0.64,0.7158620089320334,-0.10263468553315314,0.10263468553315314
0.65,0.713323819787228,-0.10326582850383592,0.10326582850383592
0.66,0.7112546159215526,-0.10388871017396695,0.10388871017396695
0.67,0.7097796989325272,-0.10450430305987335,0.10450430305987335
0.68,0.7077132720768257,-0.10511376275278006,0.10511376275278006
0.6900000000000001,0.7062180088205184,-0.10571619596627091,0.10571619596627091
0.7000000000000001,0.7041027307902344,-0.10631269409689992,0.10631269409689992
0.71,0.7022872344936201,-0.10690232578166903,0.10690232578166903
0.72,0.6997181815739788,-0.10748571117573058,0.10748571117573058
0.73,0.6979823743957807,-0.10806172116440238,0.10806172116440238
0.74,0.6967168898072243,-0.10863184532385561,0.10863184532385561
0.75,0.6952939349049426,-0.10919694355984733,0.10919694355984733
0.76,0.6944062562852785,-0.10975684420795051,0.10975684420795051
0.77,0.6924249197559682,-0.11031248520336157,0.11031248520336157
0.78,0.6910850523825358,-0.11086219884429527,0.11086219884429527
0.79,0.6892038554526269,-0.11140709041462271,0.11140709041462271
0.8,0.6880987083707668,-0.11194638893046238,0.11194638893046238
0.81,0.6870102204022265,-0.11248138603585456,0.11248138603585456
0.8200000000000001,0.6852002949979259,-0.11301217124070606,0.11301217124070606
0.8300000000000001,0.683207513146987,-0.11353770160094401,0.11353770160094401
0.84,0.6808677761072098,-0.11405777924243277,0.11405777924243277
0.85,0.6783449395123109,-0.114571964218384,0.114571964218384
0.86,0.6760848163998042,-0.11508007384816232,0.11508007384816232
0.87,0.6734087666768948,-0.11558259183273112,0.11558259183273112
0.88,0.6719054982895004,-0.11607898988104737,0.11607898988104737
0.89,0.66993079449915,-0.11657107446967208,0.11657107446967208
0.9,0.6688011882226718,-0.11705822046321468,0.11705822046321468
0.91,0.6673202398917677,-0.11754171629248011,0.11754171629248011
0.92,0.6663706213504155,-0.11802110565936597,0.11802110565936597
0.93,0.6646649265402821,-0.11849720049916357,0.11849720049916357
0.9400000000000001,0.6631264398303383,-0.11896897050482502,0.11896897050482502
0.9500000000000001,0.6613800929394317,-0.11943670849243848,0.11943670849243848
0.96,0.6604607250162339,-0.11990017585373314,0.11990017585373314
0.97,0.6584594461272517,-0.12036057839122738,0.12036057839122738
0.98,0.6563876696124317,-0.12081645642253658,0.12081645642253658
0.99,0.6552501790689981,-0.12126777257968469,0.12126777257968469
1.0,0.653237064144694,-0.12171586110744825,0.12171586110744825
1.01,0.6515532612607368,-0.12215957204428995,0.12215957204428995
1.02,0.6496580361455174,-0.12259940500025535,0.12259940500025535
1.03,0.6479919137778587,-0.12303512426731722,0.12303512426731722
1.04,0.6457109492709251,-0.1234670856339003,0.1234670856339003
1.05,0.6440879419515587,-0.12389452110449217,0.12389452110449217
1.06,0.6424001745612642,-0.1243183519755161,0.1243183519755161
1.07,0.6401295238496723,-0.1247385357660461,0.1247385357660461
1.08,0.6378232930936003,-0.12515435862455626,0.12515435862455626
1.09,0.6360451343433656,-0.12556582845590003,0.12556582845590003
1.1,0.6339137842765673,-0.1259736744695238,0.1259736744695238
1.11,0.6322656167133751,-0.12637748871057664,0.12637748871057664
1.12,0.6307315588787431,-0.1267779296336018,0.1267779296336018
1.1300000000000001,0.6295872063007147,-0.1271751780204624,0.1271751780204624
1.1400000000000001,0.6285156471878452,-0.12756975594415898,0.12756975594415898
1.1500000000000001,0.6260307423994799,-0.12796178136642367,0.12796178136642367
1.16,0.6246094360564315,-0.12834952984245207,0.12834952984245207
1.17,0.622218047901827,-0.1287343597094011,0.12873435970940117
1.18,0.6204841262201037,-0.12911511461585723,0.12911511461585723
1.19,0.6191738258336751,-0.1294926401736678,0.1294926401736678
1.2,0.6173832818377276,-0.12986748241540724,0.12986748241540724
1.21,0.6157882811242681,-0.13023909032913028,0.13023909032913028
1.22,0.6137427249223868,-0.13060773150321986,0.13060773150321991
1.23,0.6116695738506995,-0.13097290031700104,0.13097290031700104
1.24,0.6104200622131641,-0.1313346012224883,0.1313346012224883
1.25,0.6090873247503857,-0.13169383853571792,0.13169383853571792
1.26,0.6078998746395265,-0.13205053800723587,0.13205053800723587
1.27,0.6062123191205931,-0.13240489268371036,0.13240489268371036
1.28,0.6042810427424967,-0.13275634469176134,0.13275634469176134
1.29,0.6019028370376299,-0.13310464180807907,0.13310464180807913
1.3,0.6002725810847449,-0.13344930445183345,0.13344930445183345
1.31,0.5992524946627323,-0.13379122188542214,0.13379122188542214
1.32,0.5970802918121109,-0.13413111106260311,0.13413111106260311
1.33,0.5961459991190553,-0.13446769078858434,0.13446769078858434
1.34,0.5945191957247984,-0.13480238155501423,0.13480238155501423
1.35,0.5921674724783318,-0.1351344259905642,0.13513442599056413
1.36,0.5919776992152017,-0.13546304441912116,0.13546304441912116
1.37,0.5909736609324802,-0.13579065775306742,0.13579065775306742
1.3800000000000001,0.5891031587893993,-0.1361163762026134,0.1361163762026134
1.3900000000000001,0.5873796982914912,-0.13643926581758925,0.13643926581758925
1.4000000000000001,0.5857012044532502,-0.13675951325285396,0.13675951325285396
1.41,0.5850495403959212,-0.13707719124227147,0.13707719124227147
1.42,0.5832807480074058,-0.13739343063654702,0.13739343063654696
1.43,0.5819250573045732,-0.13770704106808512,0.13770704106808507
1.44,0.5801073490920092,-0.13801848773577863,0.13801848773577863
1.45,0.5785004892135701,-0.13832729708557112,0.13832729708557112
1.46,0.5773606201134597,-0.1386337158612495,0.1386337158612495
1.47,0.5764401602013592,-0.13893825650179337,0.13893825650179337
1.48,0.5755713521374407,-0.139241163992388,0.13924116399238795
1.49,0.5742218907479477,-0.13954250453190964,0.13954250453190964
1.5,0.5721704957849562,-0.1398417889134842,0.1398417889134842
1.51,0.5712781412613255,-0.14013830640176117,0.14013830640176117
1.52,0.5700304865722572,-0.14043327656084814,0.14043327656084814
1.53,0.5689160369682817,-0.14072634548275886,0.14072634548275886
1.54,0.5679116690459225,-0.14101766408139504,0.14101766408139504
1.55,0.5674795207814887,-0.14130735759107105,0.14130735759107105
1.56,0.5658965769950134,-0.14159601905269892,0.14159601905269892
1.57,0.5649880129125562,-0.14188248997404573,0.14188248997404573
1.58,0.5638727559564064,-0.14216746728877333,0.14216746728877327
1.59,0.5635468605799667,-0.14245075391626583,0.14245075391626583
1.6,0.561916801051492,-0.142733151910358,0.14273315191035796
1.61,0.561683556792877,-0.14301336578753876,0.14301336578753876
1.62,0.5605004586355926,-0.14329279980226428,0.14329279980226428
1.6300000000000001,0.5595941007800541,-0.1435705174506453,0.1435705174506453
1.6400000000000001,0.5588094372907857,-0.14384680407991957,0.14384680407991957
1.6500000000000001,0.5572825493555259,-0.14412178900756023,0.14412178900756023
1.6600000000000001,0.5565634554928968,-0.1443947538530458,0.1443947538530458
1.67,0.5554546817751252,-0.14466650165476375,0.1446665016547638
1.68,0.5547906124367631,-0.1449366613223838,0.1449366613223838
1.69,0.5541191273892676,-0.14520567456243227,0.14520567456243227
1.7,0.5541461786108323,-0.14547354134053292,0.14547354134053292
1.71,0.5527180416953843,-0.14574094187184838,0.14574094187184838
1.72,0.5522913050413822,-0.14600647994885751,0.14600647994885751
1.73,0.5517141744709222,-0.1462711272196196,0.14627112721961955
1.74,0.550946442905615,-0.14653474521422516,0.14653474521422516
1.75,0.5504748034742748,-0.14679715861932363,0.14679715861932363
1.76,0.5507068003580128,-0.14705865588523898,0.14705865588523903
1.77,0.5502317899187389,-0.14731990886103286,0.14731990886103286
1.78,0.5500304803375909,-0.14758025006018594,0.14758025006018594
1.79,0.5481399561592889,-0.14783994284717678,0.14783994284717672
1.8,0.547229480239289,-0.14809740280753925,0.14809740280753925
1.81,0.5459319220364862,-0.14835356359608665,0.14835356359608665
1.82,0.5456518356980663,-0.14860807261806386,0.14860807261806386
1.83,0.5450424531161497,-0.14886188609521733,0.14886188609521733
1.84,0.5442404752664151,-0.1491147023936228,0.1491147023936228
1.85,0.5434015093279941,-0.1493663492207815,0.1493663492207815
1.86,0.5426982200968609,-0.1496167994999874,0.1496167994999874
1.87,0.5419280895015535,-0.14986618499656768,0.14986618499656768
1.8800000000000001,0.5405132658846332,-0.1501144506575972,0.1501144506575972
1.8900000000000001,0.5396562835549809,-0.15036101498782772,0.15036101498782772
1.9000000000000001,0.5390680176854543,-0.15060639633943784,0.15060639633943784
1.9100000000000001,0.5376307921860195,-0.1508508451693138,0.1508508451693138
1.92,0.5364324683310799,-0.15109359994107074,0.15109359994107074
1.93,0.5365242275877314,-0.15133488696493091,0.15133488696493091
1.94,0.5359224945603954,-0.15157587225142444,0.15157587225142444
1.95,0.5347701973064127,-0.15181593604953364,0.1518159360495337
1.96,0.5341803594458385,-0.15205459205226146,0.15205459205226146
1.97,0.5329141970101701,-0.15229234912304562,0.15229234912304568
1.98,0.5315842291074035,-0.1525286124429922,0.1525286124429922
1.99,0.5305103441302501,-0.15276333529691466,0.15276333529691466
2.0,0.5295142835510066,-0.15299675282669734,0.15299675282669734
2.0100000000000002,0.5286733539473549,-0.15322894110037466,0.15322894110037466
2.02,0.5281175116802758,-0.15346004284157033,0.15346004284157033
2.0300000000000002,0.5268756911597687,-0.15369031247279874,0.15369031247279874
2.04,0.5254853248694925,-0.15391915839149045,0.1539191583914904
2.05,0.5247588837539147,-0.15414646104297425,0.15414646104297425
2.06,0.5243301615806846,-0.15437280237329365,0.15437280237329365
2.07,0.5238483283767018,-0.1545984434525728,0.1545984434525728
2.08,0.5227735655487429,-0.15482334207107362,0.15482334207107362
2.09,0.5214553029515302,-0.15504699458536558,0.15504699458536553
2.1,0.5206915693447659,-0.15526920084320606,0.15526920084320606
2.11,0.5205846507553102,-0.15549044052803318,0.15549044052803318
2.12,0.5199300089335556,-0.1557112752129749,0.1557112752129749
2.13,0.5193516689903748,-0.15593124326777175,0.15593124326777175
2.14,0.5187957187848729,-0.15615041340081637,0.15615041340081637
2.15,0.5182644386766492,-0.1563688083467265,0.1563688083467265
2.16,0.5173427346014926,-0.15658645255499976,0.1565864525549997
2.17,0.5165136709789745,-0.15680302283206266,0.1568030228320626
2.18,0.5160951111830276,-0.15701860226509468,0.15701860226509468
2.19,0.5155253622110584,-0.15723353758960967,0.15723353758960967
2.2,0.5142559401656447,-0.15744770617339487,0.15744770617339487
2.21,0.513717459894519,-0.1576605325378579,0.15766053253785783
2.22,0.5130562469938112,-0.15787262742385044,0.15787262742385044
2.23,0.5126252671567454,-0.15808389321874095,0.15808389321874095
2.24,0.5117132960269662,-0.1582945229726906,0.15829452297269053
2.25,0.5116778246156892,-0.1585041255573163,0.1585041255573163
2.2600000000000002,0.5108685382352187,-0.15871342233328134,0.15871342233328134
2.27,0.5104787754928829,-0.15892178323764905,0.15892178323764905
2.2800000000000002,0.5094019206129702,-0.15912955412971086,0.15912955412971086
2.29,0.5079401334891718,-0.15933618014292472,0.15933618014292472
2.3000000000000003,0.5064908666488,-0.1595413566734134,0.1595413566734134
2.31,0.5051361388971247,-0.15974510276493298,0.15974510276493303
2.32,0.504267836725596,-0.15994750291958104,0.15994750291958104
2.33,0.503521523273623,-0.1601489533604793,0.1601489533604793
2.34,0.502452831222385,-0.16034955598731143,0.16034955598731138
2.35,0.5012765909916844,-0.1605490589289531,0.1605490589289531
2.36,0.5000820216974106,-0.1607473830246589,0.16074738302465896
2.37,0.49869605685106755,-0.1609445203698462,0.1609445203698462
2.38,0.4973269679622327,-0.16114032733002387,0.16114032733002387
2.39,0.4958814426410463,-0.16133482496013007,0.16133482496013007
2.4,0.4953364371613452,-0.16152796142249864,0.16152796142249864
2.41,0.4949576946785353,-0.16172044368377686,0.16172044368377686
2.42,0.4941479036463116,-0.16191240340802943,0.16191240340802943
2.43,0.49362799316992806,-0.16210350932157108,0.16210350932157108
2.44,0.49357743579005176,-0.16229398898487324,0.16229398898487324
2.45,0.4932780431870651,-0.16248420640243572,0.16248420640243572
2.46,0.49330736908013356,-0.16267397110723902,0.16267397110723908
2.47,0.49242909482995684,-0.16286353722754038,0.16286353722754038
2.48,0.49162348754123064,-0.1630522097328989,0.1630522097328989
2.49,0.490490653390183,-0.16324004841301776,0.1632400484130178
2.5,0.48999137345087274,-0.16342680801925696,0.1634268080192569
2.5100000000000002,0.48981916494804634,-0.1636129750760995,0.1636129750760995
2.52,0.4889009429048204,-0.16379879993155455,0.1637987999315546
2.5300000000000002,0.48777171726358987,-0.16398371934689998,0.16398371934689998
2.54,0.4872221409376273,-0.16416757866872345,0.16416757866872345
2.5500000000000003,0.4855676629315689,-0.16435081892335002,0.16435081892334996
2.56,0.4848415280220397,-0.16453261481555742,0.16453261481555748
2.57,0.48428403521567953,-0.16471366763545325,0.16471366763545325
2.58,0.4834327067139001,-0.1648941062191704,0.1648941062191704
2.59,0.48258574401365895,-0.16507371477489197,0.16507371477489197
2.6,0.48230310078123473,-0.16525250035426797,0.16525250035426797
2.61,0.48195530629447,-0.1654308836919272,0.1654308836919272
2.62,0.48059694102131395,-0.16560881812585498,0.16560881812585498
2.63,0.4801546029754973,-0.16578556161181524,0.16578556161181524
2.64,0.480086274818873,-0.16596179219423657,0.16596179219423657
2.65,0.47887750106019544,-0.16613778576680538,0.16613778576680538
2.66,0.47764856603719036,-0.16631270937742476,0.16631270937742476
2.67,0.47682233984920697,-0.1664865539557973,0.16648655395579726
2.68,0.4757665847824281,-0.16665961722906758,0.16665961722906758
2.69,0.4757359360753057,-0.1668317366374385,0.1668317366374385
2.7,0.4763019709303893,-0.16700365651329185,0.16700365651329185
2.71,0.475932735311993,-0.16717580830570156,0.16717580830570156
2.72,0.47548219407293985,-0.16734751661043828,0.16734751661043828
2.73,0.4752106592843542,-0.1675187244707806,0.1675187244707806
2.74,0.4749056713462152,-0.16768956234215404,0.16768956234215404
2.75,0.4745965654574579,-0.16786000746407126,0.16786000746407126
2.7600000000000002,0.4752567347667556,-0.16803005822260364,0.1680300582226037
2.77,0.47508506374728865,-0.16820040975533795,0.1682004097553379
2.7800000000000002,0.4742110942493524,-0.16837046607328582,0.16837046607328582
2.79,0.4741659505251279,-0.16853972665182199,0.16853972665182204
2.8000000000000003,0.4735178850096885,-0.16870878523991567,0.16870878523991573
2.81,0.47316344090268203,-0.16887721347547613,0.16887721347547613
2.82,0.47360870199808836,-0.16904522222007312,0.16904522222007312
2.83,0.47297580049414834,-0.16921338003201203,0.16921338003201203
2.84,0.47251392145189625,-0.1693809224375427,0.1693809224375427
2.85,0.4722199898773733,-0.1695479727036483,0.16954797270364824
2.86,0.47146953552033893,-0.16971465108312422,0.16971465108312417
2.87,0.47200743672594125,-0.16988063735316716,0.16988063735316716
2.88,0.47205265147285724,-0.17004684000999387,0.17004684000999382
2.89,0.4720705969603491,-0.17021291217681433,0.1702129121768144
2.9,0.4722741448107974,-0.1703788350778837,0.1703788350778837
2.91,0.47196207374783283,-0.17054473946023374,0.17054473946023374
2.92,0.4722155743671214,-0.17071026374685,0.17071026374685
2.93,0.4719188628472029,-0.17087580529545449,0.17087580529545449
2.94,0.4712445985260151,-0.17104097895988257,0.17104097895988257
2.95,0.47166843999692487,-0.1712055222982356,0.1712055222982356
